EMG time
2.900000000000000000e+02 1
2.760000000000000000e+02 2
3.150000000000000000e+02 3
3.150000000000000000e+02 4
3.150000000000000000e+02 5
3.020000000000000000e+02 6
3.170000000000000000e+02 7
3.080000000000000000e+02 8
2.980000000000000000e+02 9
2.940000000000000000e+02 10
3.180000000000000000e+02 11
2.930000000000000000e+02 12
7.000000000000000000e+00 13
3.200000000000000000e+02 14
2.920000000000000000e+02 15
3.080000000000000000e+02 16
3.360000000000000000e+02 17
3.040000000000000000e+02 18
2.840000000000000000e+02 19
2.880000000000000000e+02 20
3.200000000000000000e+02 21
2.990000000000000000e+02 22
3.100000000000000000e+02 23
3.030000000000000000e+02 24
3.120000000000000000e+02 25
3.260000000000000000e+02 26
2.900000000000000000e+02 27
2.760000000000000000e+02 28
3.150000000000000000e+02 29
3.150000000000000000e+02 30
3.150000000000000000e+02 31
3.020000000000000000e+02 32
3.170000000000000000e+02 33
3.080000000000000000e+02 34
2.980000000000000000e+02 35
2.940000000000000000e+02 36
3.180000000000000000e+02 37
2.930000000000000000e+02 38
3.070000000000000000e+02 39
3.000000000000000000e+02 40
3.040000000000000000e+02 41
3.120000000000000000e+02 42
2.900000000000000000e+02 43
3.000000000000000000e+02 44
3.130000000000000000e+02 45
3.070000000000000000e+02 46
3.030000000000000000e+02 47
3.130000000000000000e+02 48
3.100000000000000000e+02 49
2.900000000000000000e+02 50
3.090000000000000000e+02 51
3.080000000000000000e+02 52
3.050000000000000000e+02 53
2.950000000000000000e+02 54
3.180000000000000000e+02 55
3.050000000000000000e+02 56
3.000000000000000000e+02 57
3.130000000000000000e+02 58
3.110000000000000000e+02 59
3.010000000000000000e+02 60
3.170000000000000000e+02 61
3.040000000000000000e+02 62
3.080000000000000000e+02 63
3.110000000000000000e+02 64
2.840000000000000000e+02 65
3.130000000000000000e+02 66
3.110000000000000000e+02 67
2.990000000000000000e+02 68
3.220000000000000000e+02 69
3.020000000000000000e+02 70
3.080000000000000000e+02 71
3.160000000000000000e+02 72
2.900000000000000000e+02 73
3.150000000000000000e+02 74
3.190000000000000000e+02 75
3.140000000000000000e+02 76
3.160000000000000000e+02 77
3.110000000000000000e+02 78
2.970000000000000000e+02 79
3.030000000000000000e+02 80
3.250000000000000000e+02 81
3.090000000000000000e+02 82
3.210000000000000000e+02 83
3.250000000000000000e+02 84
2.910000000000000000e+02 85
2.940000000000000000e+02 86
3.210000000000000000e+02 87
3.240000000000000000e+02 88
3.120000000000000000e+02 89
2.990000000000000000e+02 90
2.990000000000000000e+02 91
3.270000000000000000e+02 92
3.280000000000000000e+02 93
3.210000000000000000e+02 94
3.220000000000000000e+02 95
3.130000000000000000e+02 96
3.030000000000000000e+02 97
3.050000000000000000e+02 98
3.290000000000000000e+02 99
3.410000000000000000e+02 100
2.800000000000000000e+02 101
3.360000000000000000e+02 102
3.130000000000000000e+02 103
3.070000000000000000e+02 104
3.060000000000000000e+02 105
3.400000000000000000e+02 106
3.320000000000000000e+02 107
3.050000000000000000e+02 108
3.230000000000000000e+02 109
2.980000000000000000e+02 110
3.320000000000000000e+02 111
3.410000000000000000e+02 112
2.980000000000000000e+02 113
3.130000000000000000e+02 114
3.360000000000000000e+02 115
3.470000000000000000e+02 116
3.200000000000000000e+02 117
2.890000000000000000e+02 118
2.310000000000000000e+02 119
3.230000000000000000e+02 120
3.470000000000000000e+02 121
2.730000000000000000e+02 122
2.990000000000000000e+02 123
3.300000000000000000e+02 124
3.270000000000000000e+02 125
4.850000000000000000e+02 126
3.340000000000000000e+02 127
1.710000000000000000e+02 128
3.350000000000000000e+02 129
3.270000000000000000e+02 130
3.570000000000000000e+02 131
4.600000000000000000e+02 132
2.070000000000000000e+02 133
2.120000000000000000e+02 134
1.780000000000000000e+02 135
3.560000000000000000e+02 136
4.110000000000000000e+02 137
1.340000000000000000e+02 138
3.040000000000000000e+02 139
2.870000000000000000e+02 140
4.440000000000000000e+02 141
1.000000000000000000e+02 142
1.800000000000000000e+01 143
5.720000000000000000e+02 144
3.500000000000000000e+02 145
1.080000000000000000e+02 146
3.850000000000000000e+02 147
2.840000000000000000e+02 148
2.630000000000000000e+02 149
6.090000000000000000e+02 150
2.400000000000000000e+02 151
1.320000000000000000e+02 152
2.960000000000000000e+02 153
3.660000000000000000e+02 154
4.490000000000000000e+02 155
1.930000000000000000e+02 156
1.710000000000000000e+02 157
4.700000000000000000e+02 158
2.070000000000000000e+02 159
4.100000000000000000e+02 160
2.310000000000000000e+02 161
1.280000000000000000e+02 162
5.560000000000000000e+02 163
1.920000000000000000e+02 164
2.070000000000000000e+02 165
4.170000000000000000e+02 166
1.750000000000000000e+02 167
2.220000000000000000e+02 168
3.170000000000000000e+02 169
3.030000000000000000e+02 170
8.600000000000000000e+01 171
4.790000000000000000e+02 172
1.780000000000000000e+02 173
4.000000000000000000e+02 174
8.300000000000000000e+01 175
3.500000000000000000e+02 176
1.330000000000000000e+02 177
4.470000000000000000e+02 178
1.960000000000000000e+02 179
3.960000000000000000e+02 180
2.520000000000000000e+02 181
1.890000000000000000e+02 182
3.980000000000000000e+02 183
2.250000000000000000e+02 184
2.590000000000000000e+02 185
1.260000000000000000e+02 186
4.960000000000000000e+02 187
2.040000000000000000e+02 188
3.240000000000000000e+02 189
3.060000000000000000e+02 190
4.510000000000000000e+02 191
3.050000000000000000e+02 192
2.800000000000000000e+02 193
6.800000000000000000e+01 194
4.570000000000000000e+02 195
2.290000000000000000e+02 196
3.700000000000000000e+02 197
2.420000000000000000e+02 198
3.010000000000000000e+02 199
2.710000000000000000e+02 200
3.310000000000000000e+02 201
1.170000000000000000e+02 202
4.090000000000000000e+02 203
2.930000000000000000e+02 204
2.710000000000000000e+02 205
3.690000000000000000e+02 206
2.920000000000000000e+02 207
1.680000000000000000e+02 208
3.890000000000000000e+02 209
2.500000000000000000e+02 210
2.820000000000000000e+02 211
1.710000000000000000e+02 212
3.260000000000000000e+02 213
3.230000000000000000e+02 214
2.450000000000000000e+02 215
2.990000000000000000e+02 216
2.180000000000000000e+02 217
2.600000000000000000e+02 218
3.430000000000000000e+02 219
2.060000000000000000e+02 220
3.200000000000000000e+02 221
3.110000000000000000e+02 222
2.620000000000000000e+02 223
2.540000000000000000e+02 224
3.070000000000000000e+02 225
3.320000000000000000e+02 226
3.440000000000000000e+02 227
1.510000000000000000e+02 228
3.530000000000000000e+02 229
2.890000000000000000e+02 230
2.580000000000000000e+02 231
3.740000000000000000e+02 232
3.270000000000000000e+02 233
1.940000000000000000e+02 234
3.530000000000000000e+02 235
3.120000000000000000e+02 236
3.140000000000000000e+02 237
3.170000000000000000e+02 238
3.150000000000000000e+02 239
2.520000000000000000e+02 240
2.850000000000000000e+02 241
2.510000000000000000e+02 242
3.930000000000000000e+02 243
3.340000000000000000e+02 244
3.080000000000000000e+02 245
3.260000000000000000e+02 246
2.120000000000000000e+02 247
3.420000000000000000e+02 248
3.100000000000000000e+02 249
3.740000000000000000e+02 250
2.950000000000000000e+02 251
3.220000000000000000e+02 252
3.140000000000000000e+02 253
2.500000000000000000e+02 254
4.090000000000000000e+02 255
3.330000000000000000e+02 256
3.470000000000000000e+02 257
2.770000000000000000e+02 258
3.480000000000000000e+02 259
3.330000000000000000e+02 260
3.610000000000000000e+02 261
3.680000000000000000e+02 262
3.250000000000000000e+02 263
3.260000000000000000e+02 264
2.610000000000000000e+02 265
3.840000000000000000e+02 266
3.350000000000000000e+02 267
3.020000000000000000e+02 268
3.350000000000000000e+02 269
3.750000000000000000e+02 270
3.400000000000000000e+02 271
3.290000000000000000e+02 272
3.460000000000000000e+02 273
2.850000000000000000e+02 274
3.590000000000000000e+02 275
3.500000000000000000e+02 276
3.180000000000000000e+02 277
3.650000000000000000e+02 278
3.700000000000000000e+02 279
3.190000000000000000e+02 280
3.610000000000000000e+02 281
3.620000000000000000e+02 282
3.220000000000000000e+02 283
3.360000000000000000e+02 284
2.920000000000000000e+02 285
3.230000000000000000e+02 286
3.820000000000000000e+02 287
3.470000000000000000e+02 288
3.610000000000000000e+02 289
3.100000000000000000e+02 290
2.950000000000000000e+02 291
3.000000000000000000e+02 292
3.580000000000000000e+02 293
3.530000000000000000e+02 294
3.550000000000000000e+02 295
2.840000000000000000e+02 296
3.070000000000000000e+02 297
3.610000000000000000e+02 298
2.810000000000000000e+02 299
3.610000000000000000e+02 300
3.770000000000000000e+02 301
2.770000000000000000e+02 302
3.220000000000000000e+02 303
3.420000000000000000e+02 304
2.950000000000000000e+02 305
3.170000000000000000e+02 306
3.670000000000000000e+02 307
3.710000000000000000e+02 308
3.230000000000000000e+02 309
3.450000000000000000e+02 310
2.720000000000000000e+02 311
3.740000000000000000e+02 312
2.730000000000000000e+02 313
3.640000000000000000e+02 314
3.290000000000000000e+02 315
2.980000000000000000e+02 316
3.060000000000000000e+02 317
3.410000000000000000e+02 318
2.710000000000000000e+02 319
3.760000000000000000e+02 320
3.270000000000000000e+02 321
3.060000000000000000e+02 322
3.400000000000000000e+02 323
2.820000000000000000e+02 324
2.480000000000000000e+02 325
3.620000000000000000e+02 326
3.710000000000000000e+02 327
2.810000000000000000e+02 328
3.330000000000000000e+02 329
4.380000000000000000e+02 330
2.980000000000000000e+02 331
2.540000000000000000e+02 332
3.310000000000000000e+02 333
2.740000000000000000e+02 334
2.960000000000000000e+02 335
2.490000000000000000e+02 336
3.680000000000000000e+02 337
3.240000000000000000e+02 338
3.320000000000000000e+02 339
2.620000000000000000e+02 340
3.070000000000000000e+02 341
2.610000000000000000e+02 342
2.840000000000000000e+02 343
2.630000000000000000e+02 344
3.580000000000000000e+02 345
2.660000000000000000e+02 346
3.260000000000000000e+02 347
2.310000000000000000e+02 348
3.060000000000000000e+02 349
2.550000000000000000e+02 350
2.890000000000000000e+02 351
2.170000000000000000e+02 352
1.960000000000000000e+02 353
4.070000000000000000e+02 354
3.240000000000000000e+02 355
3.350000000000000000e+02 356
3.110000000000000000e+02 357
2.400000000000000000e+02 358
3.800000000000000000e+02 359
2.490000000000000000e+02 360
3.030000000000000000e+02 361
3.090000000000000000e+02 362
3.530000000000000000e+02 363
2.490000000000000000e+02 364
3.690000000000000000e+02 365
2.980000000000000000e+02 366
3.000000000000000000e+02 367
3.440000000000000000e+02 368
2.660000000000000000e+02 369
3.160000000000000000e+02 370
2.100000000000000000e+02 371
3.070000000000000000e+02 372
3.160000000000000000e+02 373
3.720000000000000000e+02 374
3.290000000000000000e+02 375
3.570000000000000000e+02 376
2.050000000000000000e+02 377
3.050000000000000000e+02 378
2.400000000000000000e+02 379
3.460000000000000000e+02 380
4.020000000000000000e+02 381
3.320000000000000000e+02 382
2.540000000000000000e+02 383
3.530000000000000000e+02 384
2.680000000000000000e+02 385
3.230000000000000000e+02 386
3.960000000000000000e+02 387
2.380000000000000000e+02 388
3.510000000000000000e+02 389
2.900000000000000000e+02 390
3.270000000000000000e+02 391
2.990000000000000000e+02 392
2.900000000000000000e+02 393
2.360000000000000000e+02 394
3.260000000000000000e+02 395
3.760000000000000000e+02 396
3.200000000000000000e+02 397
2.070000000000000000e+02 398
3.520000000000000000e+02 399
3.430000000000000000e+02 400
3.200000000000000000e+02 401
3.170000000000000000e+02 402
2.810000000000000000e+02 403
3.030000000000000000e+02 404
2.980000000000000000e+02 405
3.000000000000000000e+02 406
3.160000000000000000e+02 407
3.360000000000000000e+02 408
3.100000000000000000e+02 409
3.070000000000000000e+02 410
3.040000000000000000e+02 411
2.880000000000000000e+02 412
2.820000000000000000e+02 413
2.730000000000000000e+02 414
2.020000000000000000e+02 415
3.590000000000000000e+02 416
3.190000000000000000e+02 417
3.310000000000000000e+02 418
3.450000000000000000e+02 419
3.160000000000000000e+02 420
2.900000000000000000e+02 421
2.900000000000000000e+02 422
2.730000000000000000e+02 423
3.570000000000000000e+02 424
3.510000000000000000e+02 425
3.250000000000000000e+02 426
3.190000000000000000e+02 427
3.250000000000000000e+02 428
3.060000000000000000e+02 429
2.830000000000000000e+02 430
3.280000000000000000e+02 431
3.560000000000000000e+02 432
3.320000000000000000e+02 433
3.360000000000000000e+02 434
3.310000000000000000e+02 435
3.160000000000000000e+02 436
3.280000000000000000e+02 437
3.050000000000000000e+02 438
3.500000000000000000e+02 439
3.420000000000000000e+02 440
3.400000000000000000e+02 441
3.360000000000000000e+02 442
3.320000000000000000e+02 443
3.280000000000000000e+02 444
3.330000000000000000e+02 445
3.310000000000000000e+02 446
3.190000000000000000e+02 447
3.390000000000000000e+02 448
3.570000000000000000e+02 449
3.540000000000000000e+02 450
3.560000000000000000e+02 451
3.550000000000000000e+02 452
3.510000000000000000e+02 453
3.480000000000000000e+02 454
3.420000000000000000e+02 455
3.380000000000000000e+02 456
3.450000000000000000e+02 457
3.360000000000000000e+02 458
3.210000000000000000e+02 459
3.270000000000000000e+02 460
3.230000000000000000e+02 461
3.260000000000000000e+02 462
3.200000000000000000e+02 463
3.200000000000000000e+02 464
3.250000000000000000e+02 465
2.990000000000000000e+02 466
3.120000000000000000e+02 467
3.070000000000000000e+02 468
3.090000000000000000e+02 469
3.040000000000000000e+02 470
3.050000000000000000e+02 471
3.060000000000000000e+02 472
3.020000000000000000e+02 473
3.040000000000000000e+02 474
3.040000000000000000e+02 475
3.090000000000000000e+02 476
3.030000000000000000e+02 477
2.900000000000000000e+02 478
2.940000000000000000e+02 479
3.030000000000000000e+02 480
3.010000000000000000e+02 481
2.920000000000000000e+02 482
3.030000000000000000e+02 483
2.970000000000000000e+02 484
3.220000000000000000e+02 485
2.920000000000000000e+02 486
3.030000000000000000e+02 487
2.930000000000000000e+02 488
2.990000000000000000e+02 489
2.940000000000000000e+02 490
2.920000000000000000e+02 491
3.050000000000000000e+02 492
3.090000000000000000e+02 493
2.960000000000000000e+02 494
2.980000000000000000e+02 495
3.040000000000000000e+02 496
3.050000000000000000e+02 497
2.940000000000000000e+02 498
2.800000000000000000e+02 499
3.030000000000000000e+02 500
2.910000000000000000e+02 501
3.130000000000000000e+02 502
3.040000000000000000e+02 503
2.850000000000000000e+02 504
3.160000000000000000e+02 505
3.010000000000000000e+02 506
3.110000000000000000e+02 507
2.860000000000000000e+02 508
2.830000000000000000e+02 509
2.820000000000000000e+02 510
2.970000000000000000e+02 511
3.240000000000000000e+02 512
2.700000000000000000e+02 513
2.920000000000000000e+02 514
3.090000000000000000e+02 515
2.930000000000000000e+02 516
2.670000000000000000e+02 517
2.910000000000000000e+02 518
2.930000000000000000e+02 519
2.890000000000000000e+02 520
2.760000000000000000e+02 521
2.840000000000000000e+02 522
2.980000000000000000e+02 523
3.080000000000000000e+02 524
2.760000000000000000e+02 525
2.950000000000000000e+02 526
2.850000000000000000e+02 527
2.800000000000000000e+02 528
2.650000000000000000e+02 529
2.830000000000000000e+02 530
2.890000000000000000e+02 531
2.960000000000000000e+02 532
2.920000000000000000e+02 533
3.010000000000000000e+02 534
2.830000000000000000e+02 535
2.840000000000000000e+02 536
2.970000000000000000e+02 537
3.000000000000000000e+02 538
2.810000000000000000e+02 539
2.650000000000000000e+02 540
2.810000000000000000e+02 541
2.890000000000000000e+02 542
2.910000000000000000e+02 543
2.870000000000000000e+02 544
2.930000000000000000e+02 545
2.920000000000000000e+02 546
2.660000000000000000e+02 547
2.820000000000000000e+02 548
2.840000000000000000e+02 549
2.920000000000000000e+02 550
2.990000000000000000e+02 551
2.910000000000000000e+02 552
2.870000000000000000e+02 553
2.830000000000000000e+02 554
2.950000000000000000e+02 555
2.770000000000000000e+02 556
2.880000000000000000e+02 557
2.930000000000000000e+02 558
2.700000000000000000e+02 559
2.820000000000000000e+02 560
2.780000000000000000e+02 561
2.880000000000000000e+02 562
3.070000000000000000e+02 563
2.890000000000000000e+02 564
2.510000000000000000e+02 565
2.930000000000000000e+02 566
2.920000000000000000e+02 567
3.070000000000000000e+02 568
2.920000000000000000e+02 569
2.760000000000000000e+02 570
2.980000000000000000e+02 571
3.060000000000000000e+02 572
2.870000000000000000e+02 573
2.860000000000000000e+02 574
3.320000000000000000e+02 575
3.020000000000000000e+02 576
2.740000000000000000e+02 577
3.130000000000000000e+02 578
3.060000000000000000e+02 579
2.860000000000000000e+02 580
3.060000000000000000e+02 581
3.030000000000000000e+02 582
2.930000000000000000e+02 583
3.070000000000000000e+02 584
2.960000000000000000e+02 585
3.070000000000000000e+02 586
3.110000000000000000e+02 587
3.110000000000000000e+02 588
2.920000000000000000e+02 589
3.110000000000000000e+02 590
3.010000000000000000e+02 591
2.940000000000000000e+02 592
3.080000000000000000e+02 593
3.110000000000000000e+02 594
2.980000000000000000e+02 595
3.000000000000000000e+02 596
3.010000000000000000e+02 597
3.170000000000000000e+02 598
3.090000000000000000e+02 599
2.950000000000000000e+02 600
3.060000000000000000e+02 601
3.290000000000000000e+02 602
2.930000000000000000e+02 603
2.920000000000000000e+02 604
2.990000000000000000e+02 605
3.110000000000000000e+02 606
2.980000000000000000e+02 607
3.200000000000000000e+02 608
3.050000000000000000e+02 609
2.790000000000000000e+02 610
2.880000000000000000e+02 611
3.120000000000000000e+02 612
2.930000000000000000e+02 613
3.010000000000000000e+02 614
3.200000000000000000e+02 615
2.870000000000000000e+02 616
2.910000000000000000e+02 617
3.060000000000000000e+02 618
2.970000000000000000e+02 619
3.100000000000000000e+02 620
3.030000000000000000e+02 621
3.120000000000000000e+02 622
3.070000000000000000e+02 623
2.940000000000000000e+02 624
2.820000000000000000e+02 625
3.060000000000000000e+02 626
3.200000000000000000e+02 627
3.010000000000000000e+02 628
2.920000000000000000e+02 629
2.970000000000000000e+02 630
3.280000000000000000e+02 631
2.940000000000000000e+02 632
2.990000000000000000e+02 633
3.090000000000000000e+02 634
3.000000000000000000e+02 635
3.060000000000000000e+02 636
3.050000000000000000e+02 637
3.180000000000000000e+02 638
2.960000000000000000e+02 639
2.840000000000000000e+02 640
3.200000000000000000e+02 641
3.240000000000000000e+02 642
2.890000000000000000e+02 643
2.870000000000000000e+02 644
3.160000000000000000e+02 645
3.240000000000000000e+02 646
3.100000000000000000e+02 647
2.860000000000000000e+02 648
3.130000000000000000e+02 649
2.990000000000000000e+02 650
3.090000000000000000e+02 651
3.070000000000000000e+02 652
3.020000000000000000e+02 653
3.290000000000000000e+02 654
3.070000000000000000e+02 655
2.930000000000000000e+02 656
3.200000000000000000e+02 657
3.080000000000000000e+02 658
2.890000000000000000e+02 659
3.110000000000000000e+02 660
3.130000000000000000e+02 661
3.210000000000000000e+02 662
3.250000000000000000e+02 663
2.970000000000000000e+02 664
2.980000000000000000e+02 665
3.070000000000000000e+02 666
3.030000000000000000e+02 667
3.200000000000000000e+02 668
3.320000000000000000e+02 669
2.960000000000000000e+02 670
2.900000000000000000e+02 671
3.030000000000000000e+02 672
3.250000000000000000e+02 673
3.050000000000000000e+02 674
3.190000000000000000e+02 675
3.060000000000000000e+02 676
3.100000000000000000e+02 677
3.260000000000000000e+02 678
3.060000000000000000e+02 679
3.120000000000000000e+02 680
3.110000000000000000e+02 681
3.050000000000000000e+02 682
3.050000000000000000e+02 683
3.230000000000000000e+02 684
3.160000000000000000e+02 685
3.140000000000000000e+02 686
3.040000000000000000e+02 687
3.120000000000000000e+02 688
3.070000000000000000e+02 689
3.120000000000000000e+02 690
3.180000000000000000e+02 691
3.050000000000000000e+02 692
3.030000000000000000e+02 693
3.090000000000000000e+02 694
3.120000000000000000e+02 695
3.370000000000000000e+02 696
3.050000000000000000e+02 697
2.930000000000000000e+02 698
3.110000000000000000e+02 699
3.070000000000000000e+02 700
3.100000000000000000e+02 701
3.140000000000000000e+02 702
3.210000000000000000e+02 703
3.070000000000000000e+02 704
2.980000000000000000e+02 705
3.230000000000000000e+02 706
3.190000000000000000e+02 707
2.930000000000000000e+02 708
3.020000000000000000e+02 709
3.020000000000000000e+02 710
3.180000000000000000e+02 711
3.120000000000000000e+02 712
3.120000000000000000e+02 713
2.930000000000000000e+02 714
3.030000000000000000e+02 715
3.240000000000000000e+02 716
2.940000000000000000e+02 717
3.140000000000000000e+02 718
3.260000000000000000e+02 719
2.910000000000000000e+02 720
3.200000000000000000e+02 721
2.990000000000000000e+02 722
3.060000000000000000e+02 723
3.050000000000000000e+02 724
3.070000000000000000e+02 725
3.140000000000000000e+02 726
3.070000000000000000e+02 727
3.170000000000000000e+02 728
3.030000000000000000e+02 729
3.040000000000000000e+02 730
2.820000000000000000e+02 731
3.010000000000000000e+02 732
3.190000000000000000e+02 733
3.130000000000000000e+02 734
2.970000000000000000e+02 735
3.300000000000000000e+02 736
3.220000000000000000e+02 737
2.600000000000000000e+02 738
2.780000000000000000e+02 739
3.100000000000000000e+02 740
3.180000000000000000e+02 741
2.920000000000000000e+02 742
3.010000000000000000e+02 743
3.350000000000000000e+02 744
2.960000000000000000e+02 745
2.750000000000000000e+02 746
3.060000000000000000e+02 747
3.290000000000000000e+02 748
2.980000000000000000e+02 749
2.800000000000000000e+02 750
3.180000000000000000e+02 751
3.020000000000000000e+02 752
2.880000000000000000e+02 753
3.180000000000000000e+02 754
3.040000000000000000e+02 755
2.950000000000000000e+02 756
2.980000000000000000e+02 757
3.230000000000000000e+02 758
3.010000000000000000e+02 759
2.790000000000000000e+02 760
3.090000000000000000e+02 761
2.900000000000000000e+02 762
3.020000000000000000e+02 763
2.870000000000000000e+02 764
3.190000000000000000e+02 765
3.160000000000000000e+02 766
2.880000000000000000e+02 767
2.910000000000000000e+02 768
3.020000000000000000e+02 769
2.980000000000000000e+02 770
2.970000000000000000e+02 771
3.100000000000000000e+02 772
3.070000000000000000e+02 773
2.990000000000000000e+02 774
2.960000000000000000e+02 775
2.890000000000000000e+02 776
3.040000000000000000e+02 777
3.110000000000000000e+02 778
3.050000000000000000e+02 779
2.860000000000000000e+02 780
2.880000000000000000e+02 781
3.070000000000000000e+02 782
3.110000000000000000e+02 783
3.040000000000000000e+02 784
2.950000000000000000e+02 785
2.740000000000000000e+02 786
3.130000000000000000e+02 787
2.910000000000000000e+02 788
3.070000000000000000e+02 789
3.090000000000000000e+02 790
3.130000000000000000e+02 791
3.030000000000000000e+02 792
2.990000000000000000e+02 793
2.880000000000000000e+02 794
2.980000000000000000e+02 795
3.060000000000000000e+02 796
3.030000000000000000e+02 797
3.100000000000000000e+02 798
3.220000000000000000e+02 799
2.960000000000000000e+02 800
3.080000000000000000e+02 801
3.000000000000000000e+02 802
2.880000000000000000e+02 803
3.110000000000000000e+02 804
3.240000000000000000e+02 805
2.870000000000000000e+02 806
3.130000000000000000e+02 807
3.140000000000000000e+02 808
2.910000000000000000e+02 809
3.100000000000000000e+02 810
2.940000000000000000e+02 811
3.100000000000000000e+02 812
3.100000000000000000e+02 813
3.230000000000000000e+02 814
2.960000000000000000e+02 815
2.990000000000000000e+02 816
2.990000000000000000e+02 817
2.950000000000000000e+02 818
3.240000000000000000e+02 819
3.150000000000000000e+02 820
2.940000000000000000e+02 821
3.050000000000000000e+02 822
3.160000000000000000e+02 823
3.240000000000000000e+02 824
3.010000000000000000e+02 825
3.050000000000000000e+02 826
3.120000000000000000e+02 827
3.160000000000000000e+02 828
3.060000000000000000e+02 829
2.780000000000000000e+02 830
3.240000000000000000e+02 831
3.110000000000000000e+02 832
3.080000000000000000e+02 833
2.830000000000000000e+02 834
3.140000000000000000e+02 835
3.460000000000000000e+02 836
3.150000000000000000e+02 837
2.900000000000000000e+02 838
3.250000000000000000e+02 839
3.090000000000000000e+02 840
3.170000000000000000e+02 841
3.100000000000000000e+02 842
3.020000000000000000e+02 843
3.090000000000000000e+02 844
3.250000000000000000e+02 845
3.330000000000000000e+02 846
3.160000000000000000e+02 847
2.820000000000000000e+02 848
3.030000000000000000e+02 849
3.160000000000000000e+02 850
3.030000000000000000e+02 851
3.090000000000000000e+02 852
2.830000000000000000e+02 853
3.360000000000000000e+02 854
3.140000000000000000e+02 855
2.950000000000000000e+02 856
2.890000000000000000e+02 857
3.120000000000000000e+02 858
3.230000000000000000e+02 859
3.010000000000000000e+02 860
3.160000000000000000e+02 861
3.000000000000000000e+02 862
2.870000000000000000e+02 863
3.150000000000000000e+02 864
2.830000000000000000e+02 865
2.900000000000000000e+02 866
3.330000000000000000e+02 867
3.260000000000000000e+02 868
3.040000000000000000e+02 869
3.000000000000000000e+02 870
3.100000000000000000e+02 871
3.000000000000000000e+02 872
2.990000000000000000e+02 873
3.030000000000000000e+02 874
3.190000000000000000e+02 875
2.980000000000000000e+02 876
2.850000000000000000e+02 877
3.210000000000000000e+02 878
3.160000000000000000e+02 879
2.840000000000000000e+02 880
2.910000000000000000e+02 881
3.180000000000000000e+02 882
2.860000000000000000e+02 883
3.140000000000000000e+02 884
3.000000000000000000e+02 885
2.840000000000000000e+02 886
3.090000000000000000e+02 887
3.160000000000000000e+02 888
3.020000000000000000e+02 889
2.900000000000000000e+02 890
2.870000000000000000e+02 891
3.170000000000000000e+02 892
3.180000000000000000e+02 893
3.110000000000000000e+02 894
2.890000000000000000e+02 895
3.000000000000000000e+02 896
2.830000000000000000e+02 897
3.190000000000000000e+02 898
3.010000000000000000e+02 899
3.130000000000000000e+02 900
2.930000000000000000e+02 901
3.320000000000000000e+02 902
2.800000000000000000e+02 903
3.000000000000000000e+02 904
2.970000000000000000e+02 905
3.120000000000000000e+02 906
3.030000000000000000e+02 907
2.900000000000000000e+02 908
2.900000000000000000e+02 909
3.260000000000000000e+02 910
2.930000000000000000e+02 911
2.920000000000000000e+02 912
3.180000000000000000e+02 913
2.990000000000000000e+02 914
2.950000000000000000e+02 915
2.990000000000000000e+02 916
2.990000000000000000e+02 917
2.970000000000000000e+02 918
3.010000000000000000e+02 919
3.180000000000000000e+02 920
3.000000000000000000e+02 921
3.160000000000000000e+02 922
2.860000000000000000e+02 923
2.970000000000000000e+02 924
3.030000000000000000e+02 925
3.140000000000000000e+02 926
2.980000000000000000e+02 927
3.010000000000000000e+02 928
3.170000000000000000e+02 929
2.970000000000000000e+02 930
2.750000000000000000e+02 931
3.130000000000000000e+02 932
2.890000000000000000e+02 933
2.890000000000000000e+02 934
3.080000000000000000e+02 935
3.190000000000000000e+02 936
2.930000000000000000e+02 937
3.050000000000000000e+02 938
3.130000000000000000e+02 939
2.930000000000000000e+02 940
2.940000000000000000e+02 941
2.860000000000000000e+02 942
3.100000000000000000e+02 943
3.150000000000000000e+02 944
2.850000000000000000e+02 945
3.160000000000000000e+02 946
2.910000000000000000e+02 947
3.130000000000000000e+02 948
2.740000000000000000e+02 949
3.000000000000000000e+02 950
2.970000000000000000e+02 951
3.130000000000000000e+02 952
3.070000000000000000e+02 953
3.060000000000000000e+02 954
3.150000000000000000e+02 955
3.110000000000000000e+02 956
2.870000000000000000e+02 957
3.090000000000000000e+02 958
2.850000000000000000e+02 959
2.990000000000000000e+02 960
3.080000000000000000e+02 961
3.140000000000000000e+02 962
2.930000000000000000e+02 963
3.170000000000000000e+02 964
3.150000000000000000e+02 965
3.090000000000000000e+02 966
3.030000000000000000e+02 967
2.890000000000000000e+02 968
2.840000000000000000e+02 969
3.050000000000000000e+02 970
3.170000000000000000e+02 971
3.110000000000000000e+02 972
3.040000000000000000e+02 973
2.830000000000000000e+02 974
3.060000000000000000e+02 975
3.160000000000000000e+02 976
2.930000000000000000e+02 977
3.020000000000000000e+02 978
3.080000000000000000e+02 979
3.060000000000000000e+02 980
3.080000000000000000e+02 981
3.040000000000000000e+02 982
3.030000000000000000e+02 983
2.890000000000000000e+02 984
3.110000000000000000e+02 985
2.980000000000000000e+02 986
2.930000000000000000e+02 987
2.970000000000000000e+02 988
3.110000000000000000e+02 989
3.110000000000000000e+02 990
3.200000000000000000e+02 991
3.040000000000000000e+02 992
2.900000000000000000e+02 993
3.040000000000000000e+02 994
3.010000000000000000e+02 995
3.010000000000000000e+02 996
2.810000000000000000e+02 997
3.220000000000000000e+02 998
3.000000000000000000e+02 999
3.100000000000000000e+02 1000
