EMG time
0.000000000000000000e+00 1
3.180000000000000000e+02 2
3.050000000000000000e+02 3
3.060000000000000000e+02 4
3.220000000000000000e+02 5
3.070000000000000000e+02 6
2.810000000000000000e+02 7
2.890000000000000000e+02 8
3.140000000000000000e+02 9
3.100000000000000000e+02 10
3.070000000000000000e+02 11
3.020000000000000000e+02 12
3.030000000000000000e+02 13
3.140000000000000000e+02 14
3.180000000000000000e+02 15
3.050000000000000000e+02 16
2.930000000000000000e+02 17
3.150000000000000000e+02 18
3.100000000000000000e+02 19
3.050000000000000000e+02 20
2.950000000000000000e+02 21
2.990000000000000000e+02 22
3.120000000000000000e+02 23
3.010000000000000000e+02 24
2.980000000000000000e+02 25
3.090000000000000000e+02 26
3.100000000000000000e+02 27
3.000000000000000000e+02 28
2.890000000000000000e+02 29
2.960000000000000000e+02 30
3.060000000000000000e+02 31
3.030000000000000000e+02 32
2.880000000000000000e+02 33
3.090000000000000000e+02 34
3.060000000000000000e+02 35
3.130000000000000000e+02 36
3.030000000000000000e+02 37
2.970000000000000000e+02 38
2.990000000000000000e+02 39
2.830000000000000000e+02 40
2.950000000000000000e+02 41
3.050000000000000000e+02 42
3.200000000000000000e+02 43
3.100000000000000000e+02 44
2.920000000000000000e+02 45
3.030000000000000000e+02 46
2.990000000000000000e+02 47
2.880000000000000000e+02 48
3.140000000000000000e+02 49
3.060000000000000000e+02 50
2.920000000000000000e+02 51
2.990000000000000000e+02 52
3.170000000000000000e+02 53
2.850000000000000000e+02 54
3.170000000000000000e+02 55
3.020000000000000000e+02 56
2.870000000000000000e+02 57
3.300000000000000000e+02 58
3.220000000000000000e+02 59
2.840000000000000000e+02 60
2.600000000000000000e+02 61
3.170000000000000000e+02 62
3.100000000000000000e+02 63
3.010000000000000000e+02 64
3.070000000000000000e+02 65
2.730000000000000000e+02 66
2.990000000000000000e+02 67
2.990000000000000000e+02 68
3.280000000000000000e+02 69
2.720000000000000000e+02 70
3.040000000000000000e+02 71
3.220000000000000000e+02 72
2.510000000000000000e+02 73
3.170000000000000000e+02 74
2.890000000000000000e+02 75
3.230000000000000000e+02 76
3.330000000000000000e+02 77
3.000000000000000000e+02 78
2.550000000000000000e+02 79
2.880000000000000000e+02 80
3.000000000000000000e+02 81
3.370000000000000000e+02 82
3.430000000000000000e+02 83
3.050000000000000000e+02 84
2.670000000000000000e+02 85
2.680000000000000000e+02 86
3.400000000000000000e+02 87
3.240000000000000000e+02 88
3.230000000000000000e+02 89
3.090000000000000000e+02 90
3.240000000000000000e+02 91
2.680000000000000000e+02 92
3.140000000000000000e+02 93
3.160000000000000000e+02 94
3.000000000000000000e+02 95
3.020000000000000000e+02 96
3.390000000000000000e+02 97
3.290000000000000000e+02 98
2.680000000000000000e+02 99
2.920000000000000000e+02 100
3.300000000000000000e+02 101
3.400000000000000000e+02 102
2.220000000000000000e+02 103
3.700000000000000000e+02 104
2.300000000000000000e+02 105
3.400000000000000000e+02 106
3.500000000000000000e+02 107
2.880000000000000000e+02 108
2.610000000000000000e+02 109
3.990000000000000000e+02 110
3.400000000000000000e+02 111
2.500000000000000000e+02 112
2.770000000000000000e+02 113
3.090000000000000000e+02 114
3.190000000000000000e+02 115
2.370000000000000000e+02 116
2.930000000000000000e+02 117
3.710000000000000000e+02 118
3.190000000000000000e+02 119
3.600000000000000000e+02 120
1.810000000000000000e+02 121
2.350000000000000000e+02 122
4.300000000000000000e+02 123
3.490000000000000000e+02 124
2.210000000000000000e+02 125
2.700000000000000000e+02 126
3.020000000000000000e+02 127
3.520000000000000000e+02 128
2.730000000000000000e+02 129
3.140000000000000000e+02 130
2.960000000000000000e+02 131
3.170000000000000000e+02 132
2.210000000000000000e+02 133
2.690000000000000000e+02 134
3.400000000000000000e+02 135
3.430000000000000000e+02 136
2.870000000000000000e+02 137
2.610000000000000000e+02 138
2.840000000000000000e+02 139
1.940000000000000000e+02 140
2.840000000000000000e+02 141
3.400000000000000000e+02 142
2.650000000000000000e+02 143
2.640000000000000000e+02 144
3.910000000000000000e+02 145
2.880000000000000000e+02 146
3.320000000000000000e+02 147
1.810000000000000000e+02 148
3.130000000000000000e+02 149
1.120000000000000000e+02 150
4.560000000000000000e+02 151
3.620000000000000000e+02 152
4.430000000000000000e+02 153
2.710000000000000000e+02 154
2.840000000000000000e+02 155
1.980000000000000000e+02 156
3.730000000000000000e+02 157
2.770000000000000000e+02 158
4.330000000000000000e+02 159
2.060000000000000000e+02 160
3.550000000000000000e+02 161
1.860000000000000000e+02 162
2.650000000000000000e+02 163
3.790000000000000000e+02 164
4.270000000000000000e+02 165
2.870000000000000000e+02 166
2.090000000000000000e+02 167
2.730000000000000000e+02 168
3.030000000000000000e+02 169
3.720000000000000000e+02 170
1.650000000000000000e+02 171
3.310000000000000000e+02 172
3.260000000000000000e+02 173
2.120000000000000000e+02 174
3.280000000000000000e+02 175
2.250000000000000000e+02 176
3.260000000000000000e+02 177
3.760000000000000000e+02 178
3.380000000000000000e+02 179
3.170000000000000000e+02 180
1.820000000000000000e+02 181
3.060000000000000000e+02 182
3.330000000000000000e+02 183
2.880000000000000000e+02 184
2.370000000000000000e+02 185
4.060000000000000000e+02 186
1.940000000000000000e+02 187
3.010000000000000000e+02 188
1.840000000000000000e+02 189
3.460000000000000000e+02 190
4.390000000000000000e+02 191
3.430000000000000000e+02 192
2.340000000000000000e+02 193
2.700000000000000000e+02 194
4.070000000000000000e+02 195
1.910000000000000000e+02 196
2.370000000000000000e+02 197
4.650000000000000000e+02 198
2.160000000000000000e+02 199
3.630000000000000000e+02 200
2.430000000000000000e+02 201
4.620000000000000000e+02 202
2.580000000000000000e+02 203
1.200000000000000000e+02 204
3.510000000000000000e+02 205
4.050000000000000000e+02 206
3.670000000000000000e+02 207
3.800000000000000000e+02 208
1.140000000000000000e+02 209
2.920000000000000000e+02 210
2.710000000000000000e+02 211
3.180000000000000000e+02 212
1.390000000000000000e+02 213
2.100000000000000000e+01 214
3.730000000000000000e+02 215
2.080000000000000000e+02 216
5.370000000000000000e+02 217
3.470000000000000000e+02 218
3.720000000000000000e+02 219
1.770000000000000000e+02 220
4.880000000000000000e+02 221
1.740000000000000000e+02 222
4.140000000000000000e+02 223
2.270000000000000000e+02 224
1.580000000000000000e+02 225
4.450000000000000000e+02 226
9.900000000000000000e+01 227
4.870000000000000000e+02 228
2.740000000000000000e+02 229
1.810000000000000000e+02 230
3.680000000000000000e+02 231
3.270000000000000000e+02 232
2.670000000000000000e+02 233
9.600000000000000000e+01 234
2.420000000000000000e+02 235
3.760000000000000000e+02 236
2.820000000000000000e+02 237
3.230000000000000000e+02 238
2.270000000000000000e+02 239
1.440000000000000000e+02 240
4.580000000000000000e+02 241
3.510000000000000000e+02 242
2.350000000000000000e+02 243
7.500000000000000000e+01 244
4.370000000000000000e+02 245
2.550000000000000000e+02 246
2.060000000000000000e+02 247
1.920000000000000000e+02 248
2.630000000000000000e+02 249
3.660000000000000000e+02 250
3.250000000000000000e+02 251
1.160000000000000000e+02 252
3.430000000000000000e+02 253
5.020000000000000000e+02 254
1.000000000000000000e+02 255
1.460000000000000000e+02 256
3.870000000000000000e+02 257
2.430000000000000000e+02 258
2.970000000000000000e+02 259
3.030000000000000000e+02 260
2.120000000000000000e+02 261
4.020000000000000000e+02 262
2.440000000000000000e+02 263
2.690000000000000000e+02 264
2.510000000000000000e+02 265
3.580000000000000000e+02 266
2.590000000000000000e+02 267
3.220000000000000000e+02 268
2.930000000000000000e+02 269
7.400000000000000000e+01 270
5.450000000000000000e+02 271
2.180000000000000000e+02 272
3.530000000000000000e+02 273
4.060000000000000000e+02 274
2.280000000000000000e+02 275
3.290000000000000000e+02 276
3.860000000000000000e+02 277
3.140000000000000000e+02 278
4.790000000000000000e+02 279
2.210000000000000000e+02 280
3.510000000000000000e+02 281
2.440000000000000000e+02 282
3.740000000000000000e+02 283
3.320000000000000000e+02 284
3.270000000000000000e+02 285
2.830000000000000000e+02 286
3.840000000000000000e+02 287
3.070000000000000000e+02 288
3.410000000000000000e+02 289
3.510000000000000000e+02 290
4.080000000000000000e+02 291
3.460000000000000000e+02 292
2.670000000000000000e+02 293
4.020000000000000000e+02 294
3.240000000000000000e+02 295
2.950000000000000000e+02 296
3.880000000000000000e+02 297
3.000000000000000000e+02 298
2.970000000000000000e+02 299
3.320000000000000000e+02 300
3.000000000000000000e+02 301
4.240000000000000000e+02 302
3.140000000000000000e+02 303
3.650000000000000000e+02 304
3.420000000000000000e+02 305
3.430000000000000000e+02 306
3.310000000000000000e+02 307
3.080000000000000000e+02 308
3.380000000000000000e+02 309
3.160000000000000000e+02 310
4.040000000000000000e+02 311
3.380000000000000000e+02 312
3.000000000000000000e+02 313
3.680000000000000000e+02 314
3.310000000000000000e+02 315
3.240000000000000000e+02 316
3.410000000000000000e+02 317
3.330000000000000000e+02 318
3.530000000000000000e+02 319
3.380000000000000000e+02 320
3.640000000000000000e+02 321
3.430000000000000000e+02 322
3.960000000000000000e+02 323
2.460000000000000000e+02 324
3.640000000000000000e+02 325
3.180000000000000000e+02 326
3.100000000000000000e+02 327
3.630000000000000000e+02 328
3.060000000000000000e+02 329
3.050000000000000000e+02 330
3.060000000000000000e+02 331
3.880000000000000000e+02 332
3.290000000000000000e+02 333
2.970000000000000000e+02 334
3.320000000000000000e+02 335
2.860000000000000000e+02 336
3.110000000000000000e+02 337
3.760000000000000000e+02 338
3.150000000000000000e+02 339
3.530000000000000000e+02 340
3.300000000000000000e+02 341
2.820000000000000000e+02 342
3.210000000000000000e+02 343
3.670000000000000000e+02 344
3.540000000000000000e+02 345
3.370000000000000000e+02 346
3.060000000000000000e+02 347
2.930000000000000000e+02 348
4.000000000000000000e+02 349
3.080000000000000000e+02 350
3.380000000000000000e+02 351
2.990000000000000000e+02 352
3.380000000000000000e+02 353
2.730000000000000000e+02 354
3.560000000000000000e+02 355
3.790000000000000000e+02 356
2.720000000000000000e+02 357
3.660000000000000000e+02 358
3.680000000000000000e+02 359
3.320000000000000000e+02 360
3.220000000000000000e+02 361
2.810000000000000000e+02 362
3.400000000000000000e+02 363
3.400000000000000000e+02 364
3.260000000000000000e+02 365
2.840000000000000000e+02 366
3.700000000000000000e+02 367
3.000000000000000000e+02 368
3.500000000000000000e+02 369
3.440000000000000000e+02 370
3.280000000000000000e+02 371
3.270000000000000000e+02 372
2.820000000000000000e+02 373
3.110000000000000000e+02 374
3.900000000000000000e+02 375
3.120000000000000000e+02 376
2.920000000000000000e+02 377
3.110000000000000000e+02 378
3.680000000000000000e+02 379
2.950000000000000000e+02 380
3.280000000000000000e+02 381
3.560000000000000000e+02 382
3.280000000000000000e+02 383
2.670000000000000000e+02 384
3.530000000000000000e+02 385
3.040000000000000000e+02 386
3.210000000000000000e+02 387
3.410000000000000000e+02 388
2.760000000000000000e+02 389
3.490000000000000000e+02 390
3.110000000000000000e+02 391
3.340000000000000000e+02 392
2.790000000000000000e+02 393
2.930000000000000000e+02 394
3.630000000000000000e+02 395
2.790000000000000000e+02 396
3.420000000000000000e+02 397
3.090000000000000000e+02 398
2.970000000000000000e+02 399
3.070000000000000000e+02 400
3.330000000000000000e+02 401
3.080000000000000000e+02 402
2.770000000000000000e+02 403
3.440000000000000000e+02 404
3.260000000000000000e+02 405
3.130000000000000000e+02 406
2.970000000000000000e+02 407
3.100000000000000000e+02 408
3.080000000000000000e+02 409
3.030000000000000000e+02 410
2.920000000000000000e+02 411
3.170000000000000000e+02 412
3.220000000000000000e+02 413
2.540000000000000000e+02 414
3.330000000000000000e+02 415
2.450000000000000000e+02 416
3.360000000000000000e+02 417
3.580000000000000000e+02 418
2.760000000000000000e+02 419
3.060000000000000000e+02 420
2.990000000000000000e+02 421
3.050000000000000000e+02 422
3.450000000000000000e+02 423
3.140000000000000000e+02 424
3.120000000000000000e+02 425
3.100000000000000000e+02 426
2.660000000000000000e+02 427
3.010000000000000000e+02 428
2.850000000000000000e+02 429
3.440000000000000000e+02 430
3.140000000000000000e+02 431
2.880000000000000000e+02 432
2.910000000000000000e+02 433
2.970000000000000000e+02 434
3.560000000000000000e+02 435
3.140000000000000000e+02 436
3.270000000000000000e+02 437
2.870000000000000000e+02 438
2.850000000000000000e+02 439
2.990000000000000000e+02 440
2.560000000000000000e+02 441
3.710000000000000000e+02 442
3.370000000000000000e+02 443
2.860000000000000000e+02 444
2.630000000000000000e+02 445
3.370000000000000000e+02 446
2.720000000000000000e+02 447
3.450000000000000000e+02 448
3.220000000000000000e+02 449
2.820000000000000000e+02 450
3.170000000000000000e+02 451
2.580000000000000000e+02 452
2.810000000000000000e+02 453
3.380000000000000000e+02 454
3.390000000000000000e+02 455
3.030000000000000000e+02 456
3.210000000000000000e+02 457
2.780000000000000000e+02 458
2.950000000000000000e+02 459
2.740000000000000000e+02 460
3.410000000000000000e+02 461
3.040000000000000000e+02 462
3.080000000000000000e+02 463
3.080000000000000000e+02 464
3.060000000000000000e+02 465
2.480000000000000000e+02 466
3.350000000000000000e+02 467
2.860000000000000000e+02 468
3.340000000000000000e+02 469
2.950000000000000000e+02 470
3.170000000000000000e+02 471
3.080000000000000000e+02 472
1.960000000000000000e+02 473
3.940000000000000000e+02 474
3.310000000000000000e+02 475
2.680000000000000000e+02 476
3.300000000000000000e+02 477
2.960000000000000000e+02 478
3.150000000000000000e+02 479
3.130000000000000000e+02 480
2.700000000000000000e+02 481
3.170000000000000000e+02 482
3.110000000000000000e+02 483
3.050000000000000000e+02 484
2.970000000000000000e+02 485
3.070000000000000000e+02 486
3.020000000000000000e+02 487
2.940000000000000000e+02 488
2.770000000000000000e+02 489
3.100000000000000000e+02 490
2.900000000000000000e+02 491
3.050000000000000000e+02 492
3.300000000000000000e+02 493
3.250000000000000000e+02 494
3.210000000000000000e+02 495
3.110000000000000000e+02 496
3.340000000000000000e+02 497
3.340000000000000000e+02 498
3.290000000000000000e+02 499
3.330000000000000000e+02 500
3.420000000000000000e+02 501
3.420000000000000000e+02 502
3.600000000000000000e+02 503
3.500000000000000000e+02 504
3.500000000000000000e+02 505
3.560000000000000000e+02 506
3.510000000000000000e+02 507
3.580000000000000000e+02 508
3.620000000000000000e+02 509
3.640000000000000000e+02 510
3.600000000000000000e+02 511
3.540000000000000000e+02 512
3.580000000000000000e+02 513
3.440000000000000000e+02 514
3.690000000000000000e+02 515
3.510000000000000000e+02 516
3.410000000000000000e+02 517
3.440000000000000000e+02 518
3.580000000000000000e+02 519
3.510000000000000000e+02 520
3.470000000000000000e+02 521
3.390000000000000000e+02 522
3.500000000000000000e+02 523
3.350000000000000000e+02 524
3.360000000000000000e+02 525
3.480000000000000000e+02 526
3.230000000000000000e+02 527
3.280000000000000000e+02 528
3.170000000000000000e+02 529
3.330000000000000000e+02 530
3.160000000000000000e+02 531
3.280000000000000000e+02 532
3.220000000000000000e+02 533
3.170000000000000000e+02 534
3.110000000000000000e+02 535
3.210000000000000000e+02 536
3.080000000000000000e+02 537
3.150000000000000000e+02 538
3.010000000000000000e+02 539
3.020000000000000000e+02 540
3.160000000000000000e+02 541
3.010000000000000000e+02 542
2.950000000000000000e+02 543
3.050000000000000000e+02 544
3.040000000000000000e+02 545
2.960000000000000000e+02 546
2.950000000000000000e+02 547
3.040000000000000000e+02 548
2.990000000000000000e+02 549
2.910000000000000000e+02 550
3.010000000000000000e+02 551
2.940000000000000000e+02 552
2.890000000000000000e+02 553
3.030000000000000000e+02 554
2.940000000000000000e+02 555
2.840000000000000000e+02 556
2.810000000000000000e+02 557
2.930000000000000000e+02 558
2.920000000000000000e+02 559
3.080000000000000000e+02 560
2.750000000000000000e+02 561
2.920000000000000000e+02 562
2.950000000000000000e+02 563
2.940000000000000000e+02 564
3.040000000000000000e+02 565
2.820000000000000000e+02 566
2.910000000000000000e+02 567
2.980000000000000000e+02 568
3.040000000000000000e+02 569
2.800000000000000000e+02 570
2.700000000000000000e+02 571
3.140000000000000000e+02 572
3.050000000000000000e+02 573
2.970000000000000000e+02 574
2.880000000000000000e+02 575
2.900000000000000000e+02 576
2.950000000000000000e+02 577
2.850000000000000000e+02 578
2.870000000000000000e+02 579
2.740000000000000000e+02 580
3.050000000000000000e+02 581
2.980000000000000000e+02 582
2.990000000000000000e+02 583
2.840000000000000000e+02 584
2.990000000000000000e+02 585
2.910000000000000000e+02 586
2.760000000000000000e+02 587
2.970000000000000000e+02 588
3.120000000000000000e+02 589
2.870000000000000000e+02 590
2.810000000000000000e+02 591
2.860000000000000000e+02 592
2.990000000000000000e+02 593
2.960000000000000000e+02 594
2.990000000000000000e+02 595
2.840000000000000000e+02 596
2.930000000000000000e+02 597
2.920000000000000000e+02 598
2.800000000000000000e+02 599
2.880000000000000000e+02 600
3.070000000000000000e+02 601
2.900000000000000000e+02 602
2.910000000000000000e+02 603
2.920000000000000000e+02 604
2.860000000000000000e+02 605
2.950000000000000000e+02 606
2.980000000000000000e+02 607
2.820000000000000000e+02 608
2.860000000000000000e+02 609
3.000000000000000000e+02 610
2.920000000000000000e+02 611
3.030000000000000000e+02 612
3.000000000000000000e+02 613
2.890000000000000000e+02 614
2.870000000000000000e+02 615
2.980000000000000000e+02 616
2.820000000000000000e+02 617
3.030000000000000000e+02 618
2.910000000000000000e+02 619
3.010000000000000000e+02 620
3.100000000000000000e+02 621
2.830000000000000000e+02 622
2.920000000000000000e+02 623
2.950000000000000000e+02 624
2.860000000000000000e+02 625
2.940000000000000000e+02 626
2.990000000000000000e+02 627
3.050000000000000000e+02 628
2.780000000000000000e+02 629
2.910000000000000000e+02 630
3.020000000000000000e+02 631
3.100000000000000000e+02 632
2.910000000000000000e+02 633
2.710000000000000000e+02 634
2.900000000000000000e+02 635
3.000000000000000000e+02 636
2.920000000000000000e+02 637
2.880000000000000000e+02 638
2.800000000000000000e+02 639
2.880000000000000000e+02 640
2.870000000000000000e+02 641
2.980000000000000000e+02 642
2.980000000000000000e+02 643
2.910000000000000000e+02 644
2.690000000000000000e+02 645
2.730000000000000000e+02 646
2.970000000000000000e+02 647
2.960000000000000000e+02 648
2.810000000000000000e+02 649
3.020000000000000000e+02 650
2.590000000000000000e+02 651
2.900000000000000000e+02 652
2.880000000000000000e+02 653
2.970000000000000000e+02 654
2.850000000000000000e+02 655
2.860000000000000000e+02 656
2.890000000000000000e+02 657
2.990000000000000000e+02 658
2.810000000000000000e+02 659
2.710000000000000000e+02 660
2.830000000000000000e+02 661
2.900000000000000000e+02 662
3.090000000000000000e+02 663
2.870000000000000000e+02 664
2.860000000000000000e+02 665
3.020000000000000000e+02 666
2.780000000000000000e+02 667
2.900000000000000000e+02 668
2.970000000000000000e+02 669
2.790000000000000000e+02 670
3.010000000000000000e+02 671
3.180000000000000000e+02 672
2.790000000000000000e+02 673
2.660000000000000000e+02 674
2.890000000000000000e+02 675
3.140000000000000000e+02 676
2.970000000000000000e+02 677
2.910000000000000000e+02 678
3.040000000000000000e+02 679
2.970000000000000000e+02 680
3.030000000000000000e+02 681
2.970000000000000000e+02 682
2.870000000000000000e+02 683
2.970000000000000000e+02 684
2.860000000000000000e+02 685
2.950000000000000000e+02 686
3.080000000000000000e+02 687
3.020000000000000000e+02 688
2.980000000000000000e+02 689
3.390000000000000000e+02 690
2.810000000000000000e+02 691
2.890000000000000000e+02 692
3.040000000000000000e+02 693
2.990000000000000000e+02 694
2.970000000000000000e+02 695
3.100000000000000000e+02 696
3.070000000000000000e+02 697
3.150000000000000000e+02 698
3.080000000000000000e+02 699
3.030000000000000000e+02 700
2.880000000000000000e+02 701
3.170000000000000000e+02 702
2.890000000000000000e+02 703
2.900000000000000000e+02 704
3.070000000000000000e+02 705
3.190000000000000000e+02 706
2.980000000000000000e+02 707
2.920000000000000000e+02 708
3.090000000000000000e+02 709
3.090000000000000000e+02 710
3.100000000000000000e+02 711
3.130000000000000000e+02 712
2.960000000000000000e+02 713
2.790000000000000000e+02 714
3.150000000000000000e+02 715
2.990000000000000000e+02 716
3.050000000000000000e+02 717
3.120000000000000000e+02 718
3.040000000000000000e+02 719
3.140000000000000000e+02 720
3.100000000000000000e+02 721
3.090000000000000000e+02 722
2.760000000000000000e+02 723
2.960000000000000000e+02 724
3.100000000000000000e+02 725
3.040000000000000000e+02 726
3.060000000000000000e+02 727
2.930000000000000000e+02 728
3.120000000000000000e+02 729
3.150000000000000000e+02 730
3.030000000000000000e+02 731
3.020000000000000000e+02 732
2.870000000000000000e+02 733
2.950000000000000000e+02 734
3.260000000000000000e+02 735
3.040000000000000000e+02 736
2.940000000000000000e+02 737
3.000000000000000000e+02 738
3.080000000000000000e+02 739
3.160000000000000000e+02 740
2.940000000000000000e+02 741
2.970000000000000000e+02 742
2.980000000000000000e+02 743
3.050000000000000000e+02 744
3.030000000000000000e+02 745
2.900000000000000000e+02 746
2.920000000000000000e+02 747
3.020000000000000000e+02 748
3.230000000000000000e+02 749
3.210000000000000000e+02 750
2.910000000000000000e+02 751
3.000000000000000000e+02 752
3.000000000000000000e+02 753
2.840000000000000000e+02 754
3.110000000000000000e+02 755
3.040000000000000000e+02 756
3.150000000000000000e+02 757
3.060000000000000000e+02 758
2.910000000000000000e+02 759
3.180000000000000000e+02 760
3.000000000000000000e+02 761
2.950000000000000000e+02 762
2.910000000000000000e+02 763
3.050000000000000000e+02 764
3.120000000000000000e+02 765
3.070000000000000000e+02 766
2.950000000000000000e+02 767
3.020000000000000000e+02 768
2.810000000000000000e+02 769
2.990000000000000000e+02 770
3.040000000000000000e+02 771
3.110000000000000000e+02 772
3.100000000000000000e+02 773
3.030000000000000000e+02 774
2.910000000000000000e+02 775
2.910000000000000000e+02 776
3.050000000000000000e+02 777
3.130000000000000000e+02 778
2.930000000000000000e+02 779
2.970000000000000000e+02 780
3.010000000000000000e+02 781
3.020000000000000000e+02 782
2.870000000000000000e+02 783
3.170000000000000000e+02 784
3.020000000000000000e+02 785
2.980000000000000000e+02 786
3.030000000000000000e+02 787
2.860000000000000000e+02 788
3.060000000000000000e+02 789
3.030000000000000000e+02 790
2.820000000000000000e+02 791
3.050000000000000000e+02 792
3.120000000000000000e+02 793
2.960000000000000000e+02 794
3.070000000000000000e+02 795
2.990000000000000000e+02 796
3.010000000000000000e+02 797
2.860000000000000000e+02 798
3.070000000000000000e+02 799
2.900000000000000000e+02 800
3.150000000000000000e+02 801
3.130000000000000000e+02 802
3.080000000000000000e+02 803
3.060000000000000000e+02 804
2.820000000000000000e+02 805
3.010000000000000000e+02 806
3.020000000000000000e+02 807
3.130000000000000000e+02 808
3.100000000000000000e+02 809
2.870000000000000000e+02 810
3.090000000000000000e+02 811
3.080000000000000000e+02 812
3.020000000000000000e+02 813
2.940000000000000000e+02 814
3.080000000000000000e+02 815
3.080000000000000000e+02 816
3.110000000000000000e+02 817
2.930000000000000000e+02 818
2.900000000000000000e+02 819
3.030000000000000000e+02 820
3.080000000000000000e+02 821
2.990000000000000000e+02 822
3.130000000000000000e+02 823
2.970000000000000000e+02 824
3.040000000000000000e+02 825
3.060000000000000000e+02 826
3.080000000000000000e+02 827
2.950000000000000000e+02 828
2.770000000000000000e+02 829
3.070000000000000000e+02 830
3.090000000000000000e+02 831
2.970000000000000000e+02 832
3.090000000000000000e+02 833
3.120000000000000000e+02 834
2.840000000000000000e+02 835
3.100000000000000000e+02 836
2.980000000000000000e+02 837
3.120000000000000000e+02 838
3.060000000000000000e+02 839
2.940000000000000000e+02 840
3.030000000000000000e+02 841
2.930000000000000000e+02 842
2.940000000000000000e+02 843
2.990000000000000000e+02 844
3.150000000000000000e+02 845
3.010000000000000000e+02 846
2.970000000000000000e+02 847
3.150000000000000000e+02 848
2.970000000000000000e+02 849
2.920000000000000000e+02 850
2.940000000000000000e+02 851
3.170000000000000000e+02 852
3.140000000000000000e+02 853
2.900000000000000000e+02 854
3.010000000000000000e+02 855
3.160000000000000000e+02 856
2.840000000000000000e+02 857
3.000000000000000000e+02 858
3.160000000000000000e+02 859
2.980000000000000000e+02 860
3.150000000000000000e+02 861
2.840000000000000000e+02 862
3.140000000000000000e+02 863
2.970000000000000000e+02 864
3.000000000000000000e+02 865
2.960000000000000000e+02 866
3.110000000000000000e+02 867
3.080000000000000000e+02 868
3.120000000000000000e+02 869
2.900000000000000000e+02 870
3.040000000000000000e+02 871
3.080000000000000000e+02 872
3.100000000000000000e+02 873
2.980000000000000000e+02 874
3.010000000000000000e+02 875
2.980000000000000000e+02 876
3.020000000000000000e+02 877
3.040000000000000000e+02 878
3.030000000000000000e+02 879
3.060000000000000000e+02 880
3.160000000000000000e+02 881
3.020000000000000000e+02 882
2.930000000000000000e+02 883
3.100000000000000000e+02 884
3.150000000000000000e+02 885
2.970000000000000000e+02 886
2.970000000000000000e+02 887
3.020000000000000000e+02 888
3.100000000000000000e+02 889
3.140000000000000000e+02 890
3.080000000000000000e+02 891
2.870000000000000000e+02 892
3.170000000000000000e+02 893
3.260000000000000000e+02 894
2.880000000000000000e+02 895
3.000000000000000000e+02 896
3.010000000000000000e+02 897
2.980000000000000000e+02 898
3.160000000000000000e+02 899
3.000000000000000000e+02 900
3.080000000000000000e+02 901
3.030000000000000000e+02 902
3.040000000000000000e+02 903
3.040000000000000000e+02 904
3.000000000000000000e+02 905
2.940000000000000000e+02 906
3.180000000000000000e+02 907
3.150000000000000000e+02 908
3.140000000000000000e+02 909
2.940000000000000000e+02 910
3.030000000000000000e+02 911
3.010000000000000000e+02 912
3.090000000000000000e+02 913
3.180000000000000000e+02 914
3.080000000000000000e+02 915
2.900000000000000000e+02 916
3.000000000000000000e+02 917
3.230000000000000000e+02 918
3.040000000000000000e+02 919
2.930000000000000000e+02 920
2.970000000000000000e+02 921
2.980000000000000000e+02 922
3.150000000000000000e+02 923
3.190000000000000000e+02 924
3.120000000000000000e+02 925
2.940000000000000000e+02 926
3.120000000000000000e+02 927
2.900000000000000000e+02 928
3.410000000000000000e+02 929
3.020000000000000000e+02 930
2.990000000000000000e+02 931
3.080000000000000000e+02 932
3.020000000000000000e+02 933
3.150000000000000000e+02 934
2.870000000000000000e+02 935
3.130000000000000000e+02 936
3.240000000000000000e+02 937
2.970000000000000000e+02 938
2.930000000000000000e+02 939
3.200000000000000000e+02 940
3.140000000000000000e+02 941
3.070000000000000000e+02 942
2.900000000000000000e+02 943
2.930000000000000000e+02 944
3.140000000000000000e+02 945
3.360000000000000000e+02 946
3.000000000000000000e+02 947
3.110000000000000000e+02 948
3.040000000000000000e+02 949
3.040000000000000000e+02 950
3.060000000000000000e+02 951
2.900000000000000000e+02 952
3.180000000000000000e+02 953
3.160000000000000000e+02 954
3.070000000000000000e+02 955
3.100000000000000000e+02 956
3.040000000000000000e+02 957
3.110000000000000000e+02 958
2.990000000000000000e+02 959
2.980000000000000000e+02 960
3.040000000000000000e+02 961
2.990000000000000000e+02 962
3.300000000000000000e+02 963
2.950000000000000000e+02 964
2.840000000000000000e+02 965
2.980000000000000000e+02 966
3.220000000000000000e+02 967
3.000000000000000000e+02 968
2.900000000000000000e+02 969
3.160000000000000000e+02 970
3.250000000000000000e+02 971
3.030000000000000000e+02 972
2.860000000000000000e+02 973
2.980000000000000000e+02 974
3.070000000000000000e+02 975
3.210000000000000000e+02 976
3.280000000000000000e+02 977
2.880000000000000000e+02 978
3.010000000000000000e+02 979
3.050000000000000000e+02 980
3.090000000000000000e+02 981
3.030000000000000000e+02 982
3.230000000000000000e+02 983
3.050000000000000000e+02 984
3.220000000000000000e+02 985
2.930000000000000000e+02 986
3.160000000000000000e+02 987
3.150000000000000000e+02 988
2.990000000000000000e+02 989
3.020000000000000000e+02 990
3.250000000000000000e+02 991
3.220000000000000000e+02 992
3.020000000000000000e+02 993
3.110000000000000000e+02 994
3.100000000000000000e+02 995
3.090000000000000000e+02 996
3.260000000000000000e+02 997
2.970000000000000000e+02 998
3.320000000000000000e+02 999
3.120000000000000000e+02 1000
